           time(s)               X(m)               Y(m) 
0.000000000000e+00 5.249989659272e-08 5.249989533496e-08 
1.000000000000e-11 5.316233164277e-08 5.255899283532e-08 
2.000000000000e-11 5.381713860454e-08 5.258495199537e-08 
3.000000000000e-11 5.445357668270e-08 5.258466288416e-08 
4.000000000000e-11 5.508131125713e-08 5.259251899000e-08 
5.000000000000e-11 5.568686415378e-08 5.267404556272e-08 
6.000000000000e-11 5.627207744619e-08 5.284952817646e-08 
7.000000000000e-11 5.684314814475e-08 5.311779425870e-08 
8.000000000000e-11 5.740152831817e-08 5.345345257092e-08 
9.000000000000e-11 5.794659303559e-08 5.381822442198e-08 
1.000000000000e-10 5.847518671622e-08 5.417986335658e-08 
1.100000000000e-10 5.898793147358e-08 5.452293955863e-08 
1.200000000000e-10 5.948509062315e-08 5.484987693713e-08 
1.300000000000e-10 5.996810247279e-08 5.517049046550e-08 
1.400000000000e-10 6.044099073267e-08 5.549674149441e-08 
1.500000000000e-10 6.090617498215e-08 5.584100387783e-08 
1.600000000000e-10 6.136011063916e-08 5.621776006002e-08 
1.700000000000e-10 6.179511069009e-08 5.663821652539e-08 
1.800000000000e-10 6.220098405351e-08 5.710209151134e-08 
1.900000000000e-10 6.256897937795e-08 5.759745882971e-08 
2.000000000000e-10 6.289553090358e-08 5.810793673203e-08 
2.100000000000e-10 6.318379457861e-08 5.862042633460e-08 
2.200000000000e-10 6.344228447002e-08 5.912952545975e-08 
2.300000000000e-10 6.368176299032e-08 5.963605235321e-08 
2.400000000000e-10 6.391101592275e-08 6.014420680410e-08 
2.500000000000e-10 6.413352741009e-08 6.065877740988e-08 
2.600000000000e-10 6.434627858933e-08 6.118297624757e-08 
2.700000000000e-10 6.454067264719e-08 6.171756835932e-08 
2.800000000000e-10 6.470578762980e-08 6.226025839095e-08 
2.900000000000e-10 6.483300060133e-08 6.280609185427e-08 
3.000000000000e-10 6.491978925253e-08 6.334912044032e-08 
3.100000000000e-10 6.497032244476e-08 6.388439669195e-08 
3.200000000000e-10 6.499293100082e-08 6.440962784115e-08 
3.300000000000e-10 6.499634286883e-08 6.492585914489e-08 
3.400000000000e-10 6.498638073302e-08 6.543657430326e-08 
3.500000000000e-10 6.496420828200e-08 6.594538301382e-08 
3.600000000000e-10 6.492656384899e-08 6.645357299115e-08 
3.700000000000e-10 6.486761056219e-08 6.695914477468e-08 
3.800000000000e-10 6.478145671795e-08 6.745773408783e-08 
3.900000000000e-10 6.466433389135e-08 6.794450336849e-08 
4.000000000000e-10 6.451572001089e-08 6.841591268077e-08 
4.100000000000e-10 6.433822935020e-08 6.887070174226e-08 
4.200000000000e-10 6.413653677329e-08 6.930983593800e-08 
4.300000000000e-10 6.391581962659e-08 6.973558738719e-08 
4.400000000000e-10 6.368026183260e-08 7.015023900687e-08 
4.500000000000e-10 6.343212042288e-08 7.055493181071e-08 
4.600000000000e-10 6.317164317298e-08 7.094897740066e-08 
4.700000000000e-10 6.289773394159e-08 7.132974909346e-08 
4.800000000000e-10 6.260894124360e-08 7.169317195275e-08 
4.900000000000e-10 6.230428199813e-08 7.203474763049e-08 
5.000000000000e-10 6.198358007789e-08 7.235087220863e-08 
5.100000000000e-10 6.164730518754e-08 7.263999236315e-08 
5.200000000000e-10 6.129615452466e-08 7.290311315363e-08 
5.300000000000e-10 6.093067030281e-08 7.314345307497e-08 
5.400000000000e-10 6.055107184709e-08 7.336543600539e-08 
5.500000000000e-10 6.015734517220e-08 7.357340429273e-08 
5.600000000000e-10 5.974956168024e-08 7.377040339966e-08 
5.700000000000e-10 5.932835014363e-08 7.395731524157e-08 
5.800000000000e-10 5.889536447532e-08 7.413258467410e-08 
5.900000000000e-10 5.845352655497e-08 7.429269636684e-08 
6.000000000000e-10 5.800685504221e-08 7.443332821262e-08 
6.100000000000e-10 5.755982034562e-08 7.455079929150e-08 
6.200000000000e-10 5.711635973388e-08 7.464324886086e-08 
6.300000000000e-10 5.667888713768e-08 7.471110137182e-08 
6.400000000000e-10 5.624771627262e-08 7.475673614749e-08 
6.500000000000e-10 5.582116789702e-08 7.478361497903e-08 
6.600000000000e-10 5.539631301822e-08 7.479522570088e-08 
6.700000000000e-10 5.497004334914e-08 7.479413614047e-08 
6.800000000000e-10 5.454011697618e-08 7.478136772632e-08 
6.900000000000e-10 5.410594059200e-08 7.475622920204e-08 
7.000000000000e-10 5.366895743266e-08 7.471666269660e-08 
7.100000000000e-10 5.323254154916e-08 7.466001976525e-08 
7.200000000000e-10 5.280133218912e-08 7.458401734308e-08 
7.300000000000e-10 5.238008957313e-08 7.448751190728e-08 
7.400000000000e-10 5.197239999036e-08 7.437079842301e-08 
7.500000000000e-10 5.157972755222e-08 7.423539104919e-08 
7.600000000000e-10 5.120122290245e-08 7.408349410047e-08 
7.700000000000e-10 5.083436662138e-08 7.391744088860e-08 
7.800000000000e-10 5.047615679958e-08 7.373927206260e-08 
7.900000000000e-10 5.012436650876e-08 7.355049156511e-08 
8.000000000000e-10 4.977845411655e-08 7.335198372866e-08 
8.100000000000e-10 4.943990151882e-08 7.314408492182e-08 
8.200000000000e-10 4.911194756915e-08 7.292680017204e-08 
8.300000000000e-10 4.879882232721e-08 7.270009985901e-08 
8.400000000000e-10 4.850469206361e-08 7.246416784598e-08 
8.500000000000e-10 4.823260815036e-08 7.221947435834e-08 
8.600000000000e-10 4.798377624686e-08 7.196663351838e-08 
8.700000000000e-10 4.775737543740e-08 7.170612054229e-08 
8.800000000000e-10 4.755096678706e-08 7.143799235853e-08 
8.900000000000e-10 4.736131737781e-08 7.116174680228e-08 
9.000000000000e-10 4.718533272761e-08 7.087639309272e-08 
9.100000000000e-10 4.702079548865e-08 7.058073153132e-08 
9.200000000000e-10 4.686673062456e-08 7.027377679738e-08 
9.300000000000e-10 4.672338107530e-08 6.995521177745e-08 
9.400000000000e-10 4.659190603621e-08 6.962573467640e-08 
9.500000000000e-10 4.647396675915e-08 6.928717709050e-08 
9.600000000000e-10 4.637134484078e-08 6.894233174536e-08 
9.700000000000e-10 4.628567502394e-08 6.859451849372e-08 
9.800000000000e-10 4.621830643364e-08 6.824700155692e-08 
9.900000000000e-10 4.617026129916e-08 6.790241894846e-08 
1.000000000000e-09 4.614224376580e-08 6.756238210533e-08 
1.010000000000e-09 4.613465010573e-08 6.722735269107e-08 
1.020000000000e-09 4.614753630592e-08 6.689681945571e-08 
1.030000000000e-09 4.618052000727e-08 6.656970719789e-08 
1.040000000000e-09 4.623264250371e-08 6.624488453337e-08 
1.050000000000e-09 4.630227422777e-08 6.592162182497e-08 
1.060000000000e-09 4.638716835909e-08 6.559988615778e-08 
1.070000000000e-09 4.648472172663e-08 6.528042441413e-08 
1.080000000000e-09 4.659240827950e-08 6.496464986862e-08 
1.090000000000e-09 4.670826229204e-08 6.465439426294e-08 
1.100000000000e-09 4.683125524356e-08 6.435160959071e-08 
1.110000000000e-09 4.696144449537e-08 6.405810103662e-08 
1.120000000000e-09 4.709984972849e-08 6.377534746961e-08 
1.130000000000e-09 4.724809746877e-08 6.350442757390e-08 
1.140000000000e-09 4.740793745367e-08 6.324603295559e-08 
1.150000000000e-09 4.758076520625e-08 6.300052867081e-08 
1.160000000000e-09 4.776727806485e-08 6.276802186394e-08 
1.170000000000e-09 4.796734667541e-08 6.254841522379e-08 
1.180000000000e-09 4.818011282946e-08 6.234144233525e-08 
1.190000000000e-09 4.840425419315e-08 6.214669592932e-08 
1.200000000000e-09 4.863831343289e-08 6.196366238704e-08 
1.210000000000e-09 4.888098552572e-08 6.179176921780e-08 
1.220000000000e-09 4.913128723453e-08 6.163044351647e-08 
1.230000000000e-09 4.938858035828e-08 6.147917426309e-08 
1.240000000000e-09 4.965246671658e-08 6.133757176973e-08 
1.250000000000e-09 4.992260564262e-08 6.120542156499e-08 
1.260000000000e-09 5.019851971963e-08 6.108273259789e-08 
1.270000000000e-09 5.047945137805e-08 6.096977707641e-08 
1.280000000000e-09 5.076431327041e-08 6.086711317160e-08 
1.290000000000e-09 5.105174434063e-08 6.077557758040e-08 
1.300000000000e-09 5.134025158128e-08 6.069623675538e-08 
1.310000000000e-09 5.162839464356e-08 6.063029396116e-08 
1.320000000000e-09 5.191496221988e-08 6.057896073964e-08 
1.330000000000e-09 5.219909544607e-08 6.054331020284e-08 
1.340000000000e-09 5.248033134886e-08 6.052413238976e-08 
1.350000000000e-09 5.275856194707e-08 6.052181002620e-08 
1.360000000000e-09 5.303392498368e-08 6.053623026346e-08 
1.370000000000e-09 5.330665673648e-08 6.056674707941e-08 
1.380000000000e-09 5.357694448434e-08 6.061220825083e-08 
1.390000000000e-09 5.384481352588e-08 6.067105516784e-08 
1.400000000000e-09 5.411007054856e-08 6.074149076880e-08 
1.410000000000e-09 5.437230653173e-08 6.082169376996e-08 
1.420000000000e-09 5.463094508829e-08 6.091004231666e-08 
1.430000000000e-09 5.488531102512e-08 6.100530335198e-08 
1.440000000000e-09 5.513469266937e-08 6.110674981935e-08 
1.450000000000e-09 5.537838012945e-08 6.121418462178e-08 
1.460000000000e-09 5.561567482693e-08 6.132787165485e-08 
1.470000000000e-09 5.584587709985e-08 6.144839414112e-08 
1.480000000000e-09 5.606826538324e-08 6.157647424029e-08 
1.490000000000e-09 5.628208142065e-08 6.171279216425e-08 
1.500000000000e-09 5.648653188108e-08 6.185783790339e-08 
1.510000000000e-09 5.668081011550e-08 6.201181758118e-08 
1.520000000000e-09 5.686413523098e-08 6.217462255918e-08 
1.530000000000e-09 5.703580100581e-08 6.234585568938e-08 
1.540000000000e-09 5.719522535327e-08 6.252489884178e-08 
1.550000000000e-09 5.734199196819e-08 6.271100080628e-08 
1.560000000000e-09 5.747587870855e-08 6.290336465219e-08 
1.570000000000e-09 5.759687105532e-08 6.310121782157e-08 
1.580000000000e-09 5.770516179931e-08 6.330385540327e-08 
1.590000000000e-09 5.780113875221e-08 6.351065494302e-08 
1.600000000000e-09 5.788536164481e-08 6.372106812458e-08 
1.610000000000e-09 5.795852851697e-08 6.393459912462e-08 
1.620000000000e-09 5.802143112515e-08 6.415078007838e-08 
1.630000000000e-09 5.807489891172e-08 6.436915124953e-08 
1.640000000000e-09 5.811973313507e-08 6.458924935376e-08 
1.650000000000e-09 5.815663588989e-08 6.481060332977e-08 
1.660000000000e-09 5.818614133552e-08 6.503273374547e-08 
1.670000000000e-09 5.820855799239e-08 6.525515133507e-08 
1.680000000000e-09 5.822393153281e-08 6.547735210982e-08 
1.690000000000e-09 5.823203586555e-08 6.569880905352e-08 
1.700000000000e-09 5.823239609335e-08 6.591896223962e-08 
1.710000000000e-09 5.822434175426e-08 6.613721062495e-08 
1.720000000000e-09 5.820708424707e-08 6.635290921446e-08 
1.730000000000e-09 5.817980841543e-08 6.656537375417e-08 
1.740000000000e-09 5.814176583107e-08 6.677389270331e-08 
1.750000000000e-09 5.809235763060e-08 6.697774457113e-08 
1.760000000000e-09 5.803119762601e-08 6.717621765323e-08 
1.770000000000e-09 5.795815016030e-08 6.736862858466e-08 
1.780000000000e-09 5.787334121624e-08 6.755433690606e-08 
1.790000000000e-09 5.777714528260e-08 6.773275492215e-08 
1.800000000000e-09 5.767015339529e-08 6.790335386881e-08 
1.810000000000e-09 5.755312869479e-08 6.806566819983e-08 
1.820000000000e-09 5.742695551619e-08 6.821930022673e-08 
1.830000000000e-09 5.729258735367e-08 6.836392715835e-08 
1.840000000000e-09 5.715099801713e-08 6.849931118915e-08 
1.850000000000e-09 5.700313880879e-08 6.862531148866e-08 
1.860000000000e-09 5.684990346960e-08 6.874189598796e-08 
1.870000000000e-09 5.669210224183e-08 6.884915043950e-08 
1.880000000000e-09 5.653044580338e-08 6.894728173630e-08 
1.890000000000e-09 5.636553878648e-08 6.903661292177e-08 
1.900000000000e-09 5.619788196596e-08 6.911756885284e-08 
1.910000000000e-09 5.602788189146e-08 6.919065298099e-08 
1.920000000000e-09 5.585586609173e-08 6.925641660202e-08 
1.930000000000e-09 5.568210124149e-08 6.931542301089e-08 
1.940000000000e-09 5.550681186091e-08 6.936821006237e-08 
1.950000000000e-09 5.533019777820e-08 6.941525469536e-08 
1.960000000000e-09 5.515244897532e-08 6.945694219248e-08 
1.970000000000e-09 5.497375684690e-08 6.949354234461e-08 
1.980000000000e-09 5.479432197460e-08 6.952519420439e-08 
1.990000000000e-09 5.461435933109e-08 6.955190004060e-08 
2.000000000000e-09 5.443410177568e-08 6.957352803055e-08 
2.010000000000e-09 5.425380235787e-08 6.958982291204e-08 
2.020000000000e-09 5.407373598891e-08 6.960042383544e-08 
2.030000000000e-09 5.389420078691e-08 6.960488821832e-08 
2.040000000000e-09 5.371551861594e-08 6.960271998318e-08 
2.050000000000e-09 5.353803395696e-08 6.959340069797e-08 
2.060000000000e-09 5.336211093308e-08 6.957642220643e-08 
2.070000000000e-09 5.318812872197e-08 6.955131882839e-08 
2.080000000000e-09 5.301647571354e-08 6.951769697585e-08 
2.090000000000e-09 5.284754326417e-08 6.947526043437e-08 
2.100000000000e-09 5.268172067538e-08 6.942382998334e-08 
2.110000000000e-09 5.251939280621e-08 6.936335614768e-08 
2.120000000000e-09 5.236094081998e-08 6.929392446134e-08 
2.130000000000e-09 5.220674590836e-08 6.921575354365e-08 
2.140000000000e-09 5.205719537378e-08 6.912918679582e-08 
2.150000000000e-09 5.191268953907e-08 6.903467859065e-08 
2.160000000000e-09 5.177364733249e-08 6.893277616072e-08 
2.170000000000e-09 5.164050876737e-08 6.882409871168e-08 
2.180000000000e-09 5.151373333040e-08 6.870931513877e-08 
2.190000000000e-09 5.139379384086e-08 6.858912149940e-08 
2.200000000000e-09 5.128116596730e-08 6.846421956195e-08 
2.210000000000e-09 5.117631449212e-08 6.833529775298e-08 
2.220000000000e-09 5.107967791291e-08 6.820301536762e-08 
2.230000000000e-09 5.099165275716e-08 6.806799061748e-08 
2.240000000000e-09 5.091257876358e-08 6.793079299020e-08 
2.250000000000e-09 5.084272597595e-08 6.779193986759e-08 
2.260000000000e-09 5.078228449686e-08 6.765189669125e-08 
2.270000000000e-09 5.073135720173e-08 6.751107982892e-08 
2.280000000000e-09 5.068995557883e-08 6.736986134158e-08 
2.290000000000e-09 5.065799891869e-08 6.722857462492e-08 
2.300000000000e-09 5.063531694816e-08 6.708751990978e-08 
2.310000000000e-09 5.062165573060e-08 6.694696917127e-08 
2.320000000000e-09 5.061668656531e-08 6.680717041335e-08 
2.330000000000e-09 5.062001753787e-08 6.666835126716e-08 
2.340000000000e-09 5.063120705769e-08 6.653072197160e-08 
2.350000000000e-09 5.064977844357e-08 6.639447819266e-08 
2.360000000000e-09 5.067523470536e-08 6.625980410658e-08 
2.370000000000e-09 5.070707279431e-08 6.612687567350e-08 
2.380000000000e-09 5.074479652839e-08 6.599586388222e-08 
2.390000000000e-09 5.078792753705e-08 6.586693804815e-08 
2.400000000000e-09 5.083601406913e-08 6.574026899032e-08 
2.410000000000e-09 5.088863765101e-08 6.561603159230e-08 
2.420000000000e-09 5.094541748851e-08 6.549440649651e-08 
2.430000000000e-09 5.100601270240e-08 6.537558120706e-08 
2.440000000000e-09 5.107012279150e-08 6.525975066916e-08 
2.450000000000e-09 5.113748651936e-08 6.514711717616e-08 
2.460000000000e-09 5.120787919831e-08 6.503788979681e-08 
2.470000000000e-09 5.128110860868e-08 6.493228376657e-08 
2.480000000000e-09 5.135700998729e-08 6.483051976894e-08 
2.490000000000e-09 5.143544026156e-08 6.473282278037e-08 
2.500000000000e-09 5.151627166867e-08 6.463942050729e-08 
2.510000000000e-09 5.159938527975e-08 6.455054155103e-08 
2.520000000000e-09 5.168466499046e-08 6.446641295677e-08 
2.530000000000e-09 5.177199214912e-08 6.438725684395e-08 
2.540000000000e-09 5.186124095588e-08 6.431328643184e-08 
2.550000000000e-09 5.195227506609e-08 6.424470177288e-08 
2.560000000000e-09 5.204494550832e-08 6.418168507219e-08 
2.570000000000e-09 5.213908964801e-08 6.412439577109e-08 
2.580000000000e-09 5.223453106120e-08 6.407296602985e-08 
2.590000000000e-09 5.233108040250e-08 6.402749687749e-08 
2.600000000000e-09 5.242853703754e-08 6.398805491967e-08 
2.610000000000e-09 5.252669107427e-08 6.395466983159e-08 
2.620000000000e-09 5.262532573625e-08 6.392733305928e-08 
2.630000000000e-09 5.272422011958e-08 6.390599762614e-08 
2.640000000000e-09 5.282315209271e-08 6.389057879830e-08 
2.650000000000e-09 5.292190109297e-08 6.388095575641e-08 
2.660000000000e-09 5.302025083615e-08 6.387697442594e-08 
2.670000000000e-09 5.311799191816e-08 6.387845111356e-08 
2.680000000000e-09 5.321492407039e-08 6.388517664368e-08 
2.690000000000e-09 5.331085793522e-08 6.389692111034e-08 
2.700000000000e-09 5.340561647929e-08 6.391343909943e-08 
2.710000000000e-09 5.349903604411e-08 6.393447486827e-08 
2.720000000000e-09 5.359096694521e-08 6.395976726035e-08 
2.730000000000e-09 5.368127368266e-08 6.398905444259e-08 
2.740000000000e-09 5.376983492929e-08 6.402207820453e-08 
2.750000000000e-09 5.385654332055e-08 6.405858747333e-08 
2.760000000000e-09 5.394130500636e-08 6.409834109898e-08 
2.770000000000e-09 5.402403902425e-08 6.414111009815e-08 
2.780000000000e-09 5.410467657350e-08 6.418667921090e-08 
2.790000000000e-09 5.418316016556e-08 6.423484770213e-08 
2.800000000000e-09 5.425944259760e-08 6.428542965538e-08 
2.810000000000e-09 5.433348579354e-08 6.433825394908e-08 
2.820000000000e-09 5.440525960143e-08 6.439316381584e-08 
2.830000000000e-09 5.447474055334e-08 6.445001600197e-08 
2.840000000000e-09 5.454191054561e-08 6.450867979162e-08 
2.850000000000e-09 5.460675552836e-08 6.456903594754e-08 
2.860000000000e-09 5.466926429850e-08 6.463097546557e-08 
2.870000000000e-09 5.472942735526e-08 6.469439819012e-08 
2.880000000000e-09 5.478723573434e-08 6.475921147438e-08 
2.890000000000e-09 5.484267990509e-08 6.482532887296e-08 
2.900000000000e-09 5.489574879417e-08 6.489266878838e-08 
2.910000000000e-09 5.494642882581e-08 6.496115312175e-08 
2.920000000000e-09 5.499470291580e-08 6.503070605254e-08 
2.930000000000e-09 5.504054957648e-08 6.510125292810e-08 
2.940000000000e-09 5.508394220054e-08 6.517271919667e-08 
2.950000000000e-09 5.512484839596e-08 6.524502941029e-08 
2.960000000000e-09 5.516322938326e-08 6.531810639840e-08 
2.970000000000e-09 5.519903967612e-08 6.539187059781e-08 
2.980000000000e-09 5.523222705154e-08 6.546623944298e-08 
2.990000000000e-09 5.526273259339e-08 6.554112683493e-08 
3.000000000000e-09 5.529049091402e-08 6.561644280692e-08 
3.010000000000e-09 5.531543074718e-08 6.569209334955e-08 
3.020000000000e-09 5.533747577619e-08 6.576798027782e-08 
3.030000000000e-09 5.535654548389e-08 6.584400119156e-08 
3.040000000000e-09 5.537255621770e-08 6.592004966770e-08 
3.050000000000e-09 5.538542259926e-08 6.599601560770e-08 
3.060000000000e-09 5.539505902850e-08 6.607178561117e-08 
3.070000000000e-09 5.540138113458e-08 6.614724347526e-08 
3.080000000000e-09 5.540430742018e-08 6.622227093867e-08 
3.090000000000e-09 5.540376109552e-08 6.629674851657e-08 
3.100000000000e-09 5.539967177170e-08 6.637055629484e-08 
3.110000000000e-09 5.539197694706e-08 6.644357481689e-08 
3.120000000000e-09 5.538062354873e-08 6.651568612588e-08 
3.130000000000e-09 5.536556940781e-08 6.658677472445e-08 
3.140000000000e-09 5.534678431005e-08 6.665672834633e-08 
3.150000000000e-09 5.532425074948e-08 6.672543876013e-08 
3.160000000000e-09 5.529796465168e-08 6.679280254863e-08 
3.170000000000e-09 5.526793584789e-08 6.685872160844e-08 
3.180000000000e-09 5.523418806615e-08 6.692310338268e-08 
3.190000000000e-09 5.519675874309e-08 6.698586105736e-08 
3.200000000000e-09 5.515569886597e-08 6.704691358626e-08 
3.210000000000e-09 5.511107256933e-08 6.710618532204e-08 
3.220000000000e-09 5.506295641069e-08 6.716360539748e-08 
3.230000000000e-09 5.501143870722e-08 6.721910705771e-08 
3.240000000000e-09 5.495661902534e-08 6.727262675358e-08 
3.250000000000e-09 5.489860752118e-08 6.732410287719e-08 
3.260000000000e-09 5.483752418673e-08 6.737347439091e-08 
3.270000000000e-09 5.477349837213e-08 6.742067951378e-08 
3.280000000000e-09 5.470666853567e-08 6.746565426578e-08 
3.290000000000e-09 5.463718189736e-08 6.750833087633e-08 
3.300000000000e-09 5.456519413753e-08 6.754863639964e-08 
3.310000000000e-09 5.449086947233e-08 6.758649163372e-08 
3.320000000000e-09 5.441438083859e-08 6.762181012031e-08 
3.330000000000e-09 5.433590992029e-08 6.765449738908e-08 
3.340000000000e-09 5.425564723582e-08 6.768445076527e-08 
3.350000000000e-09 5.417379247153e-08 6.771155970120e-08 
3.360000000000e-09 5.409055468978e-08 6.773570642450e-08 
3.370000000000e-09 5.400615225066e-08 6.775676711807e-08 
3.380000000000e-09 5.392081271281e-08 6.777461381659e-08 
3.390000000000e-09 5.383477276931e-08 6.778911680668e-08 
3.400000000000e-09 5.374827785267e-08 6.780014732958e-08 
3.410000000000e-09 5.366158138589e-08 6.780758074124e-08 
3.420000000000e-09 5.357494397218e-08 6.781130010944e-08 
